wn,1,10
3997.80844,-0.00885,-0.01017
3995.87993,-0.00883,-0.01014
3993.95142,-0.00882,-0.01011
3992.0229,-0.00884,-0.0101
3990.09439,-0.00883,-0.01008
3988.16588,-0.00879,-0.01006
3986.23736,-0.00876,-0.01006
3984.30885,-0.00875,-0.01005
3982.38033,-0.00873,-0.01001
3980.45182,-0.00874,-0.01001
3978.52331,-0.00879,-0.01008
3976.59479,-0.00882,-0.01014
3974.66628,-0.00883,-0.01014
3972.73777,-0.00887,-0.01016
3970.80925,-0.00891,-0.01018
3968.88074,-0.0089,-0.01017
3966.95223,-0.00885,-0.01015
3965.02371,-0.00883,-0.01013
3963.0952,-0.00882,-0.0101
3961.16669,-0.0088,-0.01008
3959.23817,-0.00885,-0.01012
3957.30966,-0.00896,-0.01022
3955.38115,-0.009,-0.01027
3953.45263,-0.00893,-0.01022
3951.52412,-0.0088,-0.01013
3949.59561,-0.00874,-0.01008
3947.66709,-0.00875,-0.0101
3945.73858,-0.00882,-0.01014
3943.81007,-0.00885,-0.01014
3941.88155,-0.00882,-0.0101
3939.95304,-0.00877,-0.01006
3938.02452,-0.00874,-0.01003
3936.09601,-0.00873,-0.01003
3934.1675,-0.00879,-0.01011
3932.23898,-0.00891,-0.01022
3930.31047,-0.00898,-0.01027
3928.38196,-0.00896,-0.01022
3926.45344,-0.00889,-0.01014
3924.52493,-0.00881,-0.01008
3922.59642,-0.00877,-0.01008
3920.6679,-0.00879,-0.01013
3918.73939,-0.00884,-0.01019
3916.81088,-0.00886,-0.01019
3914.88236,-0.00887,-0.01018
3912.95385,-0.00883,-0.01012
3911.02534,-0.00876,-0.01004
3909.09682,-0.00873,-0.01
3907.16831,-0.00877,-0.01006
3905.2398,-0.00885,-0.01018
3903.31128,-0.0089,-0.01026
3901.38277,-0.00891,-0.01027
3899.45426,-0.00891,-0.01023
3897.52574,-0.00887,-0.01016
3895.59723,-0.00881,-0.01011
3893.66871,-0.0088,-0.01011
3891.7402,-0.00884,-0.01014
3889.81169,-0.00881,-0.01011
3887.88317,-0.00874,-0.01008
3885.95466,-0.00874,-0.01012
3884.02615,-0.00878,-0.01014
3882.09763,-0.0088,-0.01012
3880.16912,-0.0088,-0.01011
3878.24061,-0.00874,-0.01005
3876.31209,-0.00865,-0.00998
3874.38358,-0.00862,-0.00996
3872.45507,-0.00865,-0.01
3870.52655,-0.00872,-0.01008
3868.59804,-0.00872,-0.01009
3866.66953,-0.00871,-0.01006
3864.74101,-0.00877,-0.01011
3862.8125,-0.00879,-0.01012
3860.88399,-0.0087,-0.01001
3858.95547,-0.00858,-0.0099
3857.02696,-0.00855,-0.00992
3855.09845,-0.00867,-0.0101
3853.16993,-0.00881,-0.01025
3851.24142,-0.00876,-0.01015
3849.3129,-0.00868,-0.01002
3847.38439,-0.0087,-0.01003
3845.45588,-0.00869,-0.01005
3843.52736,-0.00861,-0.01
3841.59885,-0.00855,-0.00995
3839.67034,-0.00863,-0.01005
3837.74182,-0.00874,-0.01017
3835.81331,-0.00871,-0.01012
3833.8848,-0.00866,-0.01002
3831.95628,-0.00868,-0.01002
3830.02777,-0.00874,-0.01007
3828.09926,-0.0088,-0.01013
3826.17074,-0.00877,-0.01009
3824.24223,-0.00867,-0.00999
3822.31372,-0.00864,-0.00998
3820.3852,-0.0086,-0.00997
3818.45669,-0.00854,-0.00996
3816.52818,-0.00862,-0.01005
3814.59966,-0.00871,-0.0101
3812.67115,-0.00866,-0.01001
3810.74264,-0.00858,-0.00992
3808.81412,-0.00856,-0.00993
3806.88561,-0.00861,-0.00997
3804.95709,-0.00863,-0.00997
3803.02858,-0.00867,-0.01002
3801.10007,-0.00873,-0.01008
3799.17155,-0.00873,-0.01005
3797.24304,-0.00873,-0.01001
3795.31453,-0.0087,-0.00999
3793.38601,-0.00863,-0.00996
3791.4575,-0.00862,-0.00996
3789.52899,-0.00867,-0.00998
3787.60047,-0.00874,-0.01001
3785.67196,-0.00877,-0.01004
3783.74345,-0.00874,-0.01003
3781.81493,-0.00872,-0.01002
3779.88642,-0.00873,-0.01004
3777.95791,-0.00875,-0.01006
3776.02939,-0.00878,-0.01008
3774.10088,-0.00879,-0.01009
3772.17237,-0.00876,-0.01006
3770.24385,-0.00863,-0.00997
3768.31534,-0.0085,-0.00985
3766.38683,-0.00849,-0.00982
3764.45831,-0.00854,-0.00985
3762.5298,-0.00858,-0.0099
3760.60128,-0.00864,-0.00997
3758.67277,-0.00869,-0.01001
3756.74426,-0.00868,-0.00997
3754.81574,-0.00865,-0.00995
3752.88723,-0.00866,-0.01
3750.95872,-0.00866,-0.01001
3749.0302,-0.00855,-0.00989
3747.10169,-0.00847,-0.0098
3745.17318,-0.00856,-0.00989
3743.24466,-0.0086,-0.00992
3741.31615,-0.00851,-0.00981
3739.38764,-0.00849,-0.00978
3737.45912,-0.00852,-0.00983
3735.53061,-0.00852,-0.00981
3733.6021,-0.00846,-0.00972
3731.67358,-0.00845,-0.00967
3729.74507,-0.00852,-0.00971
3727.81656,-0.00862,-0.00982
3725.88804,-0.0087,-0.0099
3723.95953,-0.0087,-0.00987
3722.03102,-0.00863,-0.00977
3720.1025,-0.00854,-0.00966
3718.17399,-0.0085,-0.00959
3716.24547,-0.00856,-0.00963
3714.31696,-0.00867,-0.00974
3712.38845,-0.00875,-0.00982
3710.45993,-0.00878,-0.00984
3708.53142,-0.00879,-0.00983
3706.60291,-0.00883,-0.00983
3704.67439,-0.00887,-0.00985
3702.74588,-0.00887,-0.00985
3700.81737,-0.00883,-0.0098
3698.88885,-0.00884,-0.00976
3696.96034,-0.00889,-0.00975
3695.03183,-0.0089,-0.00972
3693.10331,-0.00888,-0.00966
3691.1748,-0.00891,-0.00963
3689.24629,-0.009,-0.00965
3687.31777,-0.00902,-0.00962
3685.38926,-0.00902,-0.00957
3683.46075,-0.00904,-0.00955
3681.53223,-0.00905,-0.00951
3679.60372,-0.00906,-0.00948
3677.67521,-0.00914,-0.00953
3675.74669,-0.00928,-0.00963
3673.81818,-0.00935,-0.00966
3671.88966,-0.00945,-0.00971
3669.96115,-0.00953,-0.00975
3668.03264,-0.00954,-0.00968
3666.10412,-0.00956,-0.00963
3664.17561,-0.00963,-0.00966
3662.2471,-0.00968,-0.00968
3660.31858,-0.00977,-0.00972
3658.39007,-0.00991,-0.0098
3656.46156,-0.00999,-0.00984
3654.53304,-0.00994,-0.00977
3652.60453,-0.00991,-0.00974
3650.67602,-0.01,-0.00986
3648.7475,-0.01009,-0.00994
3646.81899,-0.01009,-0.00994
3644.89048,-0.01013,-0.00996
3642.96196,-0.01018,-0.01
3641.03345,-0.01023,-0.01005
3639.10494,-0.01024,-0.01006
3637.17642,-0.01021,-0.01002
3635.24791,-0.01019,-0.00999
3633.3194,-0.01019,-0.00999
3631.39088,-0.01022,-0.01005
3629.46237,-0.01032,-0.0102
3627.53385,-0.01037,-0.01028
3625.60534,-0.01038,-0.01032
3623.67683,-0.01041,-0.01042
3621.74831,-0.0104,-0.01047
3619.8198,-0.01034,-0.01041
3617.89129,-0.01031,-0.01033
3615.96277,-0.01034,-0.01035
3614.03426,-0.01037,-0.01045
3612.10575,-0.01035,-0.01055
3610.17723,-0.01031,-0.01057
3608.24872,-0.01025,-0.01052
3606.32021,-0.0102,-0.01045
3604.39169,-0.01024,-0.01046
3602.46318,-0.01031,-0.01053
3600.53467,-0.01031,-0.01057
3598.60615,-0.01024,-0.01057
3596.67764,-0.0102,-0.01059
3594.74913,-0.01022,-0.01066
3592.82061,-0.01023,-0.01072
3590.8921,-0.01018,-0.01073
3588.96359,-0.01015,-0.01078
3587.03507,-0.01014,-0.01084
3585.10656,-0.01011,-0.01085
3583.17804,-0.01011,-0.01087
3581.24953,-0.01015,-0.01094
3579.32102,-0.01019,-0.011
3577.3925,-0.01021,-0.01103
3575.46399,-0.01024,-0.01107
3573.53548,-0.01024,-0.01111
3571.60696,-0.01015,-0.01109
3569.67845,-0.01006,-0.01104
3567.74994,-0.01006,-0.01106
3565.82142,-0.01008,-0.01111
3563.89291,-0.01007,-0.01113
3561.9644,-0.01001,-0.01114
3560.03588,-0.00991,-0.01111
3558.10737,-0.00989,-0.01114
3556.17886,-0.00996,-0.01123
3554.25034,-0.01006,-0.01133
3552.32183,-0.01013,-0.01142
3550.39332,-0.01013,-0.01147
3548.4648,-0.01006,-0.01144
3546.53629,-0.01001,-0.01142
3544.60778,-0.01004,-0.01147
3542.67926,-0.01011,-0.01154
3540.75075,-0.01005,-0.01147
3538.82223,-0.00994,-0.01139
3536.89372,-0.00997,-0.01146
3534.96521,-0.01006,-0.01154
3533.03669,-0.01005,-0.01152
3531.10818,-0.01002,-0.01153
3529.17967,-0.01007,-0.01162
3527.25115,-0.01009,-0.01164
3525.32264,-0.01004,-0.01157
3523.39413,-0.01007,-0.01158
3521.46561,-0.01023,-0.01175
3519.5371,-0.01036,-0.01196
3517.60859,-0.01035,-0.01208
3515.68007,-0.01028,-0.01211
3513.75156,-0.01022,-0.01203
3511.82305,-0.0102,-0.01194
3509.89453,-0.01026,-0.01196
3507.96602,-0.01031,-0.01203
3506.03751,-0.0103,-0.01205
3504.10899,-0.01028,-0.01202
3502.18048,-0.01032,-0.01201
3500.25197,-0.0104,-0.01207
3498.32345,-0.01043,-0.01211
3496.39494,-0.01039,-0.01209
3494.46642,-0.0104,-0.01214
3492.53791,-0.01051,-0.01226
3490.6094,-0.01065,-0.01238
3488.68088,-0.01077,-0.01247
3486.75237,-0.01087,-0.01257
3484.82386,-0.01092,-0.01263
3482.89534,-0.01087,-0.01257
3480.96683,-0.01087,-0.01255
3479.03832,-0.01095,-0.0126
3477.1098,-0.011,-0.01261
3475.18129,-0.01099,-0.01258
3473.25278,-0.011,-0.01257
3471.32426,-0.01108,-0.01263
3469.39575,-0.01122,-0.01279
3467.46724,-0.01134,-0.01295
3465.53872,-0.01142,-0.013
3463.61021,-0.01149,-0.013
3461.6817,-0.01152,-0.01297
3459.75318,-0.01151,-0.01294
3457.82467,-0.01151,-0.01294
3455.89616,-0.01154,-0.01296
3453.96764,-0.01161,-0.01299
3452.03913,-0.01176,-0.01308
3450.11061,-0.01193,-0.01319
3448.1821,-0.01207,-0.01333
3446.25359,-0.01221,-0.01349
3444.32507,-0.01234,-0.01359
3442.39656,-0.01244,-0.01362
3440.46805,-0.01256,-0.01368
3438.53953,-0.01268,-0.0138
3436.61102,-0.01272,-0.01385
3434.68251,-0.01263,-0.01371
3432.75399,-0.0125,-0.01349
3430.82548,-0.01255,-0.01347
3428.89697,-0.01285,-0.01369
3426.96845,-0.01318,-0.01396
3425.03994,-0.01335,-0.01412
3423.11143,-0.01332,-0.01408
3421.18291,-0.01329,-0.01403
3419.2544,-0.01345,-0.01417
3417.32589,-0.01361,-0.01429
3415.39737,-0.01366,-0.01426
3413.46886,-0.01372,-0.01426
3411.54035,-0.01386,-0.0144
3409.61183,-0.01394,-0.01449
3407.68332,-0.0139,-0.01444
3405.7548,-0.01387,-0.01435
3403.82629,-0.01391,-0.01435
3401.89778,-0.01399,-0.01442
3399.96926,-0.01409,-0.01453
3398.04075,-0.01426,-0.01464
3396.11224,-0.01448,-0.01473
3394.18372,-0.01466,-0.01479
3392.25521,-0.01481,-0.01491
3390.3267,-0.01499,-0.01508
3388.39818,-0.01507,-0.01513
3386.46967,-0.01508,-0.01511
3384.54116,-0.0152,-0.01519
3382.61264,-0.01535,-0.01526
3380.68413,-0.01533,-0.01521
3378.75562,-0.01531,-0.0152
3376.8271,-0.0155,-0.01534
3374.89859,-0.01577,-0.01551
3372.97008,-0.01595,-0.0156
3371.04156,-0.01599,-0.01564
3369.11305,-0.01603,-0.01569
3367.18453,-0.01614,-0.01575
3365.25602,-0.01624,-0.01578
3363.32751,-0.01636,-0.01589
3361.39899,-0.01654,-0.01608
3359.47048,-0.01675,-0.01623
3357.54197,-0.01695,-0.01634
3355.61345,-0.01705,-0.0164
3353.68494,-0.017,-0.01637
3351.75643,-0.01696,-0.01631
3349.82791,-0.01695,-0.01628
3347.8994,-0.01693,-0.01624
3345.97089,-0.017,-0.0163
3344.04237,-0.01711,-0.01642
3342.11386,-0.01713,-0.01642
3340.18535,-0.01714,-0.01637
3338.25683,-0.01719,-0.01637
3336.32832,-0.01725,-0.0164
3334.39981,-0.0173,-0.01644
3332.47129,-0.01735,-0.01649
3330.54278,-0.01751,-0.01664
3328.61427,-0.0178,-0.01685
3326.68575,-0.01787,-0.01687
3324.75724,-0.01766,-0.01669
3322.82872,-0.01754,-0.01659
3320.90021,-0.01762,-0.01663
3318.9717,-0.01769,-0.0167
3317.04318,-0.01772,-0.01677
3315.11467,-0.01776,-0.01684
3313.18616,-0.01782,-0.01691
3311.25764,-0.01785,-0.01694
3309.32913,-0.01784,-0.01697
3307.40062,-0.01786,-0.01706
3305.4721,-0.0179,-0.01714
3303.54359,-0.01787,-0.01711
3301.61508,-0.01773,-0.01695
3299.68656,-0.01755,-0.01676
3297.75805,-0.01757,-0.01677
3295.82954,-0.01779,-0.017
3293.90102,-0.01795,-0.01717
3291.97251,-0.01799,-0.01719
3290.044,-0.01807,-0.01723
3288.11548,-0.01817,-0.01735
3286.18697,-0.01818,-0.01742
3284.25846,-0.0181,-0.01736
3282.32994,-0.01803,-0.01725
3280.40143,-0.01805,-0.01726
3278.47291,-0.01807,-0.0173
3276.5444,-0.01802,-0.01726
3274.61589,-0.01806,-0.01726
3272.68737,-0.01826,-0.01744
3270.75886,-0.01849,-0.01768
3268.83035,-0.01857,-0.01776
3266.90183,-0.01856,-0.01772
3264.97332,-0.0186,-0.01775
3263.04481,-0.01864,-0.01779
3261.11629,-0.0186,-0.01773
3259.18778,-0.0185,-0.01761
3257.25927,-0.01839,-0.01751
3255.33075,-0.01831,-0.01746
3253.40224,-0.01831,-0.01741
3251.47373,-0.01841,-0.01742
3249.54521,-0.01861,-0.01757
3247.6167,-0.01881,-0.01772
3245.68819,-0.01885,-0.01774
3243.75967,-0.01878,-0.01772
3241.83116,-0.01885,-0.01781
3239.90265,-0.01901,-0.01795
3237.97413,-0.01906,-0.01798
3236.04562,-0.01908,-0.01798
3234.1171,-0.01921,-0.01809
3232.18859,-0.01947,-0.01833
3230.26008,-0.01975,-0.01859
3228.33156,-0.01986,-0.01866
3226.40305,-0.01978,-0.01857
3224.47454,-0.01965,-0.01844
3222.54602,-0.0195,-0.01825
3220.61751,-0.01936,-0.01811
3218.689,-0.01934,-0.01817
3216.76048,-0.01948,-0.01838
3214.83197,-0.01963,-0.01853
3212.90346,-0.01963,-0.01851
3210.97494,-0.01953,-0.01845
3209.04643,-0.01951,-0.0185
3207.11792,-0.01957,-0.01861
3205.1894,-0.01963,-0.01872
3203.26089,-0.01968,-0.01881
3201.33238,-0.01973,-0.01889
3199.40386,-0.01972,-0.01889
3197.47535,-0.01965,-0.01883
3195.54684,-0.01961,-0.01879
3193.61832,-0.01961,-0.01878
3191.68981,-0.01959,-0.01881
3189.76129,-0.01959,-0.01888
3187.83278,-0.01958,-0.01894
3185.90427,-0.01958,-0.01899
3183.97575,-0.01957,-0.01903
3182.04724,-0.01949,-0.01901
3180.11873,-0.0194,-0.019
3178.19021,-0.01938,-0.01903
3176.2617,-0.01932,-0.019
3174.33319,-0.01924,-0.01897
3172.40467,-0.01924,-0.01905
3170.47616,-0.01927,-0.01917
3168.54765,-0.01929,-0.01923
3166.61913,-0.0193,-0.01931
3164.69062,-0.01931,-0.0194
3162.76211,-0.01923,-0.01942
3160.83359,-0.01906,-0.01933
3158.90508,-0.01896,-0.01931
3156.97657,-0.01893,-0.01938
3155.04805,-0.01886,-0.01939
3153.11954,-0.01881,-0.01941
3151.19103,-0.01874,-0.01945
3149.26251,-0.01849,-0.01933
3147.334,-0.01819,-0.01913
3145.40548,-0.01807,-0.01908
3143.47697,-0.01809,-0.01915
3141.54846,-0.01809,-0.01919
3139.61994,-0.01804,-0.01921
3137.69143,-0.018,-0.01929
3135.76292,-0.01795,-0.01934
3133.8344,-0.01786,-0.01934
3131.90589,-0.01779,-0.01935
3129.97738,-0.01778,-0.0194
3128.04886,-0.01774,-0.01943
3126.12035,-0.01761,-0.01938
3124.19184,-0.01738,-0.01924
3122.26332,-0.01715,-0.01911
3120.33481,-0.01695,-0.01903
3118.4063,-0.01671,-0.01891
3116.47778,-0.01647,-0.0188
3114.54927,-0.01632,-0.01873
3112.62076,-0.01623,-0.01871
3110.69224,-0.01621,-0.0188
3108.76373,-0.01621,-0.01889
3106.83522,-0.01615,-0.01888
3104.9067,-0.01611,-0.01891
3102.97819,-0.01607,-0.01902
3101.04967,-0.01593,-0.019
3099.12116,-0.01578,-0.01892
3097.19265,-0.01575,-0.01892
3095.26413,-0.01574,-0.01896
3093.33562,-0.01565,-0.01894
3091.40711,-0.01544,-0.01882
3089.47859,-0.01514,-0.01861
3087.55008,-0.0149,-0.01844
3085.62157,-0.0148,-0.0184
3083.69305,-0.01477,-0.01847
3081.76454,-0.01466,-0.01847
3079.83603,-0.01452,-0.0184
3077.90751,-0.01444,-0.01838
3075.979,-0.01438,-0.01838
3074.05049,-0.01429,-0.01836
3072.12197,-0.01425,-0.01834
3070.19346,-0.01419,-0.01829
3068.26495,-0.01402,-0.01817
3066.33643,-0.01385,-0.01806
3064.40792,-0.01376,-0.01801
3062.47941,-0.01375,-0.01799
3060.55089,-0.01374,-0.01797
3058.62238,-0.01367,-0.01793
3056.69386,-0.01355,-0.01785
3054.76535,-0.01349,-0.01781
3052.83684,-0.01348,-0.01784
3050.90832,-0.01347,-0.01784
3048.97981,-0.01342,-0.01776
3047.0513,-0.01335,-0.01765
3045.12278,-0.01327,-0.01756
3043.19427,-0.01324,-0.01758
3041.26576,-0.01328,-0.01766
3039.33724,-0.01326,-0.01768
3037.40873,-0.01314,-0.01758
3035.48022,-0.01304,-0.01747
3033.5517,-0.01301,-0.01742
3031.62319,-0.01298,-0.0174
3029.69468,-0.01287,-0.01732
3027.76616,-0.01279,-0.01723
3025.83765,-0.01279,-0.0172
3023.90914,-0.01282,-0.01719
3021.98062,-0.01283,-0.01719
3020.05211,-0.01281,-0.01719
3018.1236,-0.01274,-0.01715
3016.19508,-0.01261,-0.01705
3014.26657,-0.0125,-0.01695
3012.33805,-0.01245,-0.01691
3010.40954,-0.01241,-0.01689
3008.48103,-0.01239,-0.01689
3006.55251,-0.01239,-0.01691
3004.624,-0.01237,-0.01692
3002.69549,-0.01227,-0.01687
3000.76697,-0.01219,-0.0168
2998.83846,-0.01219,-0.01682
2996.90995,-0.01219,-0.01687
2994.98143,-0.01209,-0.01683
2993.05292,-0.01193,-0.01675
2991.12441,-0.01176,-0.01668
2989.19589,-0.01162,-0.01664
2987.26738,-0.01149,-0.01661
2985.33887,-0.01134,-0.01657
2983.41035,-0.01116,-0.01648
2981.48184,-0.01094,-0.01637
2979.55333,-0.01072,-0.01625
2977.62481,-0.01049,-0.01613
2975.6963,-0.01029,-0.01603
2973.76779,-0.01008,-0.01595
2971.83927,-0.00986,-0.01586
2969.91076,-0.00962,-0.01576
2967.98224,-0.00939,-0.01569
2966.05373,-0.00914,-0.01562
2964.12522,-0.00883,-0.0155
2962.1967,-0.00854,-0.01537
2960.26819,-0.00832,-0.01528
2958.33968,-0.00815,-0.01522
2956.41116,-0.00803,-0.01519
2954.48265,-0.008,-0.01522
2952.55414,-0.00801,-0.01526
2950.62562,-0.008,-0.01529
2948.69711,-0.00789,-0.01528
2946.7686,-0.00767,-0.01516
2944.84008,-0.00741,-0.01503
2942.91157,-0.00712,-0.01492
2940.98306,-0.00674,-0.01479
2939.05454,-0.00634,-0.01466
2937.12603,-0.00598,-0.01459
2935.19752,-0.00562,-0.01453
2933.269,-0.00519,-0.01439
2931.34049,-0.00474,-0.01418
2929.41198,-0.00432,-0.01401
2927.48346,-0.00399,-0.01392
2925.55495,-0.00378,-0.01389
2923.62643,-0.00373,-0.01391
2921.69792,-0.00381,-0.01393
2919.76941,-0.00402,-0.01397
2917.84089,-0.00437,-0.01407
2915.91238,-0.00478,-0.01418
2913.98387,-0.00518,-0.01422
2912.05535,-0.00564,-0.01432
2910.12684,-0.00612,-0.01448
2908.19833,-0.00645,-0.01457
2906.26981,-0.00663,-0.01457
2904.3413,-0.00677,-0.01457
2902.41279,-0.00689,-0.01459
2900.48427,-0.00699,-0.0146
2898.55576,-0.00709,-0.0146
2896.62725,-0.00722,-0.01464
2894.69873,-0.00738,-0.01471
2892.77022,-0.00752,-0.01479
2890.84171,-0.00764,-0.01487
2888.91319,-0.00774,-0.01491
2886.98468,-0.00776,-0.01488
2885.05617,-0.00774,-0.0148
2883.12765,-0.00773,-0.01476
2881.19914,-0.00773,-0.01476
2879.27062,-0.00771,-0.01475
2877.34211,-0.00769,-0.01473
2875.4136,-0.00768,-0.01473
2873.48508,-0.0077,-0.01475
2871.55657,-0.00776,-0.01479
2869.62806,-0.00782,-0.01479
2867.69954,-0.00786,-0.01478
2865.77103,-0.00787,-0.01479
2863.84252,-0.00777,-0.01473
2861.914,-0.00752,-0.01458
2859.98549,-0.00724,-0.01445
2858.05698,-0.00702,-0.01441
2856.12846,-0.00681,-0.01438
2854.19995,-0.00664,-0.0143
2852.27144,-0.0066,-0.01423
2850.34292,-0.00682,-0.01428
2848.41441,-0.00725,-0.01439
2846.4859,-0.00776,-0.0145
2844.55738,-0.00828,-0.0146
2842.62887,-0.00872,-0.01471
2840.70036,-0.00905,-0.0148
2838.77184,-0.00927,-0.01482
2836.84333,-0.00939,-0.0148
2834.91481,-0.00948,-0.01481
2832.9863,-0.00958,-0.01486
2831.05779,-0.00966,-0.01487
2829.12927,-0.00972,-0.01483
2827.20076,-0.00978,-0.0148
2825.27225,-0.00988,-0.01484
2823.34373,-0.00999,-0.0149
2821.41522,-0.01006,-0.01492
2819.48671,-0.01007,-0.01489
2817.55819,-0.01006,-0.01486
2815.62968,-0.01006,-0.01486
2813.70117,-0.0101,-0.01487
2811.77265,-0.01013,-0.01486
2809.84414,-0.01014,-0.01483
2807.91563,-0.01019,-0.01484
2805.98711,-0.01027,-0.01487
2804.0586,-0.0103,-0.01487
2802.13009,-0.0103,-0.01486
2800.20157,-0.01027,-0.01483
2798.27306,-0.01024,-0.01478
2796.34455,-0.01024,-0.01475
2794.41603,-0.0103,-0.01476
2792.48752,-0.01039,-0.01482
2790.559,-0.01046,-0.01487
2788.63049,-0.01046,-0.01487
2786.70198,-0.01045,-0.01484
2784.77346,-0.01048,-0.01484
2782.84495,-0.01053,-0.01486
2780.91644,-0.01056,-0.01486
2778.98792,-0.01058,-0.01484
2777.05941,-0.01061,-0.01483
2775.1309,-0.01064,-0.01483
2773.20238,-0.01064,-0.01481
2771.27387,-0.01063,-0.01477
2769.34536,-0.01061,-0.01477
2767.41684,-0.01065,-0.01482
2765.48833,-0.01069,-0.01485
2763.55982,-0.01066,-0.01481
2761.6313,-0.01063,-0.01475
2759.70279,-0.01066,-0.01476
2757.77428,-0.0107,-0.01478
2755.84576,-0.01072,-0.01478
2753.91725,-0.01075,-0.01477
2751.98874,-0.01078,-0.01478
2750.06022,-0.0108,-0.0148
2748.13171,-0.01079,-0.01479
2746.20319,-0.01077,-0.01475
2744.27468,-0.01078,-0.01475
2742.34617,-0.01081,-0.01476
2740.41765,-0.01083,-0.01477
2738.48914,-0.0108,-0.01474
2736.56063,-0.01074,-0.01468
2734.63211,-0.01073,-0.01465
2732.7036,-0.01082,-0.01472
2730.77509,-0.01092,-0.01481
2728.84657,-0.01095,-0.01482
2726.91806,-0.01092,-0.01479
2724.98955,-0.01089,-0.01475
2723.06103,-0.01089,-0.01474
2721.13252,-0.0109,-0.01473
2719.20401,-0.01091,-0.01471
2717.27549,-0.01092,-0.01469
2715.34698,-0.01091,-0.01467
2713.41847,-0.01092,-0.01468
2711.48995,-0.01096,-0.01472
2709.56144,-0.011,-0.01475
2707.63293,-0.01104,-0.01479
2705.70441,-0.01107,-0.01481
2703.7759,-0.01108,-0.01482
2701.84738,-0.0111,-0.01483
2699.91887,-0.01114,-0.01485
2697.99036,-0.01118,-0.01488
2696.06184,-0.01119,-0.01486
2694.13333,-0.01112,-0.01478
2692.20482,-0.01105,-0.01469
2690.2763,-0.01104,-0.01467
2688.34779,-0.01111,-0.01472
2686.41928,-0.01119,-0.01477
2684.49076,-0.01122,-0.01478
2682.56225,-0.01121,-0.01478
2680.63374,-0.01121,-0.01477
2678.70522,-0.01124,-0.01478
2676.77671,-0.01128,-0.0148
2674.8482,-0.01128,-0.01478
2672.91968,-0.01123,-0.01472
2670.99117,-0.0112,-0.01469
2669.06266,-0.01123,-0.01472
2667.13414,-0.0113,-0.01479
2665.20563,-0.01138,-0.01487
2663.27712,-0.01143,-0.01492
2661.3486,-0.01144,-0.01492
2659.42009,-0.01141,-0.01489
2657.49157,-0.01136,-0.01487
2655.56306,-0.01133,-0.01484
2653.63455,-0.01136,-0.01486
2651.70603,-0.01142,-0.01488
2649.77752,-0.01143,-0.01488
2647.84901,-0.01139,-0.01485
2645.92049,-0.01139,-0.01484
2643.99198,-0.01145,-0.01485
2642.06347,-0.0115,-0.01489
2640.13495,-0.01151,-0.01494
2638.20644,-0.01151,-0.01495
2636.27793,-0.01152,-0.01494
2634.34941,-0.01157,-0.01494
2632.4209,-0.01162,-0.01494
2630.49239,-0.01164,-0.01495
2628.56387,-0.01166,-0.01499
2626.63536,-0.01164,-0.01497
2624.70685,-0.01156,-0.01489
2622.77833,-0.0115,-0.01485
2620.84982,-0.01151,-0.01486
2618.9213,-0.01158,-0.0149
2616.99279,-0.01166,-0.01494
2615.06428,-0.01172,-0.01497
2613.13576,-0.01174,-0.01498
2611.20725,-0.01177,-0.01499
2609.27874,-0.01178,-0.01497
2607.35022,-0.0118,-0.01497
2605.42171,-0.01185,-0.01504
2603.4932,-0.01186,-0.01507
2601.56468,-0.01182,-0.01502
2599.63617,-0.0118,-0.01495
2597.70766,-0.01179,-0.0149
2595.77914,-0.01181,-0.0149
2593.85063,-0.01187,-0.01495
2591.92212,-0.01197,-0.01505
2589.9936,-0.01207,-0.01514
2588.06509,-0.01206,-0.01513
2586.13658,-0.01195,-0.01501
2584.20806,-0.01186,-0.01492
2582.27955,-0.01184,-0.01488
2580.35104,-0.01185,-0.01486
2578.42252,-0.01189,-0.01489
2576.49401,-0.01193,-0.01492
2574.56549,-0.0119,-0.01491
2572.63698,-0.01189,-0.01491
2570.70847,-0.0119,-0.01494
2568.77995,-0.01193,-0.01495
2566.85144,-0.01196,-0.01495
2564.92293,-0.01201,-0.01499
2562.99441,-0.01206,-0.01506
2561.0659,-0.01213,-0.01513
2559.13739,-0.01216,-0.01513
2557.20887,-0.01211,-0.01503
2555.28036,-0.01198,-0.01489
2553.35185,-0.01188,-0.0148
2551.42333,-0.01191,-0.01485
2549.49482,-0.01203,-0.01494
2547.56631,-0.01204,-0.01491
2545.63779,-0.01192,-0.01475
2543.70928,-0.01186,-0.01467
2541.78077,-0.01196,-0.01476
2539.85225,-0.01211,-0.01492
2537.92374,-0.01222,-0.01502
2535.99523,-0.01223,-0.01505
2534.06671,-0.01214,-0.01504
2532.1382,-0.01205,-0.01501
2530.20968,-0.012,-0.01494
2528.28117,-0.01197,-0.01481
2526.35266,-0.01203,-0.01477
2524.42414,-0.01217,-0.01488
2522.49563,-0.01225,-0.01498
2520.56712,-0.01224,-0.01498
2518.6386,-0.01219,-0.01497
2516.71009,-0.01215,-0.01499
2514.78158,-0.0121,-0.01496
2512.85306,-0.01204,-0.01485
2510.92455,-0.01204,-0.01481
2508.99604,-0.01216,-0.01492
2507.06752,-0.01229,-0.01507
2505.13901,-0.01226,-0.01505
2503.2105,-0.01212,-0.01489
2501.28198,-0.01204,-0.0148
2499.35347,-0.01208,-0.01483
2497.42496,-0.01214,-0.01488
2495.49644,-0.0122,-0.01491
2493.56793,-0.01227,-0.01495
2491.63942,-0.01235,-0.01505
2489.7109,-0.0124,-0.01514
2487.78239,-0.01238,-0.01514
2485.85387,-0.01234,-0.01506
2483.92536,-0.01235,-0.01503
2481.99685,-0.01239,-0.01507
2480.06833,-0.01241,-0.0151
2478.13982,-0.01241,-0.0151
2476.21131,-0.01246,-0.0151
2474.28279,-0.01255,-0.01513
2472.35428,-0.01264,-0.01519
2470.42577,-0.01267,-0.01523
2468.49725,-0.01265,-0.01524
2466.56874,-0.01264,-0.01528
2464.64023,-0.01261,-0.01529
2462.71171,-0.01254,-0.01521
2460.7832,-0.01249,-0.01511
2458.85469,-0.01255,-0.01516
2456.92617,-0.01274,-0.01534
2454.99766,-0.01283,-0.01545
2453.06915,-0.01275,-0.01544
2451.14063,-0.01264,-0.01538
2449.21212,-0.01259,-0.01528
2447.28361,-0.01261,-0.01518
2445.35509,-0.01262,-0.01515
2443.42658,-0.01263,-0.01518
2441.49806,-0.01265,-0.01522
2439.56955,-0.01266,-0.01521
2437.64104,-0.01268,-0.0152
2435.71252,-0.01274,-0.0153
2433.78401,-0.01279,-0.01539
2431.8555,-0.01281,-0.01535
2429.92698,-0.01279,-0.01528
2427.99847,-0.01276,-0.01525
2426.06996,-0.01278,-0.01525
2424.14144,-0.01278,-0.0152
2422.21293,-0.01274,-0.01513
2420.28442,-0.01277,-0.01518
2418.3559,-0.01287,-0.01531
2416.42739,-0.01296,-0.01541
2414.49888,-0.01295,-0.01542
2412.57036,-0.01289,-0.01538
2410.64185,-0.01289,-0.01534
2408.71334,-0.01296,-0.01534
2406.78482,-0.01302,-0.01534
2404.85631,-0.01301,-0.01534
2402.9278,-0.01295,-0.01533
2400.99928,-0.01286,-0.01527
2399.07077,-0.01284,-0.01523
2397.14225,-0.01295,-0.01531
2395.21374,-0.01302,-0.01538
2393.28523,-0.01298,-0.01538
2391.35671,-0.01292,-0.01535
2389.4282,-0.01292,-0.01533
2387.49969,-0.01299,-0.01535
2385.57117,-0.01307,-0.0154
2383.64266,-0.01307,-0.01541
2381.71415,-0.01301,-0.01536
2379.78563,-0.01297,-0.01532
2377.85712,-0.01305,-0.01539
2375.92861,-0.01314,-0.01547
2374.00009,-0.01307,-0.0154
2372.07158,-0.01295,-0.01528
2370.14307,-0.01296,-0.01527
2368.21455,-0.01303,-0.01532
2366.28604,-0.01308,-0.01536
2364.35753,-0.01313,-0.01542
2362.42901,-0.01317,-0.01548
2360.5005,-0.0132,-0.01556
2358.57199,-0.01327,-0.01566
2356.64347,-0.01326,-0.01566
2354.71496,-0.01314,-0.01554
2352.78644,-0.0131,-0.01549
2350.85793,-0.01314,-0.01552
2348.92942,-0.01312,-0.0155
2347.0009,-0.01307,-0.01546
2345.07239,-0.01308,-0.01548
2343.14388,-0.01313,-0.01554
2341.21536,-0.01319,-0.0156
2339.28685,-0.01319,-0.01562
2337.35834,-0.01315,-0.01557
2335.42982,-0.01311,-0.01551
2333.50131,-0.01312,-0.01551
2331.5728,-0.01317,-0.0156
2329.64428,-0.01324,-0.01569
2327.71577,-0.01324,-0.01576
2325.78726,-0.01315,-0.01579
2323.85874,-0.01302,-0.01576
2321.93023,-0.01299,-0.01573
2320.00172,-0.01307,-0.01574
2318.0732,-0.01314,-0.01576
2316.14469,-0.01312,-0.01571
2314.21618,-0.01307,-0.01565
2312.28766,-0.0131,-0.01569
2310.35915,-0.01318,-0.01577
2308.43063,-0.01317,-0.01575
2306.50212,-0.01307,-0.01567
2304.57361,-0.01306,-0.01567
2302.64509,-0.0131,-0.01568
2300.71658,-0.01299,-0.01554
2298.78807,-0.01283,-0.01535
2296.85955,-0.01286,-0.01536
2294.93104,-0.01306,-0.01555
2293.00253,-0.01321,-0.01576
2291.07401,-0.01325,-0.01586
2289.1455,-0.01326,-0.01589
2287.21699,-0.01323,-0.01589
2285.28847,-0.01311,-0.01578
2283.35996,-0.01298,-0.01557
2281.43145,-0.01296,-0.01544
2279.50293,-0.01307,-0.01551
2277.57442,-0.01323,-0.01567
2275.64591,-0.01336,-0.01585
2273.71739,-0.01342,-0.01595
2271.78888,-0.01345,-0.01596
2269.86037,-0.01351,-0.01605
2267.93185,-0.01352,-0.01618
2266.00334,-0.01345,-0.01611
2264.07482,-0.01343,-0.01593
2262.14631,-0.01349,-0.01591
2260.2178,-0.01345,-0.01594
2258.28928,-0.01328,-0.01578
2256.36077,-0.01321,-0.01555
2254.43226,-0.01334,-0.01551
2252.50374,-0.01353,-0.01562
2250.57523,-0.0136,-0.01567
2248.64672,-0.01354,-0.01565
2246.7182,-0.01352,-0.01567
2244.78969,-0.01353,-0.01564
2242.86118,-0.01333,-0.01544
2240.93266,-0.01317,-0.01531
2239.00415,-0.01325,-0.01539
2237.07564,-0.01327,-0.01542
2235.14712,-0.01321,-0.01538
2233.21861,-0.01338,-0.01557
2231.2901,-0.01368,-0.01582
2229.36158,-0.01377,-0.01583
2227.43307,-0.01356,-0.0157
2225.50456,-0.01326,-0.01561
2223.57604,-0.01325,-0.01571
2221.64753,-0.01354,-0.01596
2219.71901,-0.0139,-0.01622
2217.7905,-0.01401,-0.01627
2215.86199,-0.0136,-0.01588
2213.93347,-0.01294,-0.01522
2212.00496,-0.01262,-0.01478
2210.07645,-0.01291,-0.01504
2208.14793,-0.01347,-0.01574
2206.21942,-0.01375,-0.01608
2204.29091,-0.01364,-0.01581
2202.36239,-0.01353,-0.0155
2200.43388,-0.01385,-0.01578
2198.50537,-0.01434,-0.01635
2196.57685,-0.01421,-0.01632
2194.64834,-0.01342,-0.0157
2192.71983,-0.01268,-0.01514
2190.79131,-0.0124,-0.01467
2188.8628,-0.01257,-0.01454
2186.93429,-0.01318,-0.01518
2185.00577,-0.01346,-0.01548
2183.07726,-0.01311,-0.01474
2181.14875,-0.01298,-0.01434
2179.22023,-0.01301,-0.01472
2177.29172,-0.01285,-0.01518
2175.3632,-0.01303,-0.0156
2173.43469,-0.01336,-0.0156
2171.50618,-0.01315,-0.01504
2169.57766,-0.01269,-0.01481
2167.64915,-0.01257,-0.01523
2165.72064,-0.01285,-0.01566
2163.79212,-0.01327,-0.01575
2161.86361,-0.01351,-0.01563
2159.9351,-0.01337,-0.01519
2158.00658,-0.01285,-0.01423
2156.07807,-0.01248,-0.01364
2154.14956,-0.01257,-0.01394
2152.22104,-0.01291,-0.01451
2150.29253,-0.01339,-0.01492
2148.36402,-0.01403,-0.01536
2146.4355,-0.01466,-0.016
2144.50699,-0.01485,-0.01643
2142.57848,-0.01455,-0.01631
2140.64996,-0.01416,-0.01585
2138.72145,-0.01383,-0.01538
2136.79294,-0.01372,-0.01518
2134.86442,-0.01376,-0.01514
2132.93591,-0.01364,-0.01493
2131.00739,-0.01335,-0.01471
2129.07888,-0.01318,-0.01475
2127.15037,-0.01329,-0.01504
2125.22185,-0.0136,-0.01546
2123.29334,-0.0139,-0.01585
2121.36483,-0.01407,-0.01613
2119.43631,-0.01413,-0.01633
2117.5078,-0.01405,-0.0163
2115.57929,-0.01381,-0.01601
2113.65077,-0.01371,-0.01586
2111.72226,-0.01374,-0.01591
2109.79375,-0.01375,-0.01598
2107.86523,-0.01396,-0.01623
2105.93672,-0.01423,-0.01656
2104.00821,-0.01428,-0.01665
2102.07969,-0.01433,-0.01665
2100.15118,-0.01432,-0.01649
2098.22267,-0.01412,-0.01603
2096.29415,-0.01401,-0.01561
2094.36564,-0.01395,-0.01541
2092.43713,-0.01369,-0.0153
2090.50861,-0.01351,-0.01539
2088.5801,-0.01362,-0.01573
2086.65158,-0.01383,-0.01599
2084.72307,-0.0141,-0.01614
2082.79456,-0.01438,-0.01636
2080.86604,-0.01431,-0.01639
2078.93753,-0.01412,-0.01628
2077.00902,-0.0142,-0.01633
2075.0805,-0.01432,-0.01639
2073.15199,-0.01435,-0.01641
2071.22348,-0.01442,-0.01643
2069.29496,-0.01444,-0.01646
2067.36645,-0.01446,-0.01657
2065.43794,-0.01426,-0.01637
2063.50942,-0.0139,-0.01584
2061.58091,-0.0139,-0.01569
2059.6524,-0.014,-0.01571
2057.72388,-0.01371,-0.01541
2055.79537,-0.01357,-0.01534
2053.86686,-0.01406,-0.01587
2051.93834,-0.01451,-0.01633
2050.00983,-0.01428,-0.01616
2048.08132,-0.01369,-0.01565
2046.1528,-0.0134,-0.01538
2044.22429,-0.01374,-0.01573
2042.29577,-0.01472,-0.0167
2040.36726,-0.01565,-0.01754
2038.43875,-0.01585,-0.0176
2036.51023,-0.01577,-0.01739
2034.58172,-0.01542,-0.01711
2032.65321,-0.01449,-0.01624
2030.72469,-0.01421,-0.01582
2028.79618,-0.01521,-0.01676
2026.86767,-0.01564,-0.01758
2024.93915,-0.01477,-0.01714
2023.01064,-0.01392,-0.01629
2021.08213,-0.01336,-0.01559
2019.15361,-0.01292,-0.01514
2017.2251,-0.01321,-0.01527
2015.29659,-0.01418,-0.01592
2013.36807,-0.01524,-0.01673
2011.43956,-0.01569,-0.01698
2009.51105,-0.01495,-0.01607
2007.58253,-0.01392,-0.01506
2005.65402,-0.01372,-0.0151
2003.72551,-0.01376,-0.01545
2001.79699,-0.01347,-0.01538
1999.86848,-0.01323,-0.01516
1997.93996,-0.0134,-0.01507
1996.01145,-0.01396,-0.01538
1994.08294,-0.01457,-0.016
1992.15442,-0.01479,-0.0164
1990.22591,-0.01478,-0.01663
1988.2974,-0.01467,-0.01681
1986.36888,-0.01415,-0.01638
1984.44037,-0.0135,-0.01555
1982.51186,-0.01377,-0.01559
1980.58334,-0.0149,-0.01669
1978.65483,-0.01533,-0.01739
1976.72632,-0.015,-0.01722
1974.7978,-0.01534,-0.0172
1972.86929,-0.01583,-0.01732
1970.94078,-0.01537,-0.01705
1969.01226,-0.01437,-0.01641
1967.08375,-0.01361,-0.01577
1965.15524,-0.01333,-0.01529
1963.22672,-0.01343,-0.01511
1961.29821,-0.01382,-0.01539
1959.3697,-0.01441,-0.01597
1957.44118,-0.01496,-0.01656
1955.51267,-0.01507,-0.01684
1953.58415,-0.0147,-0.01668
1951.65564,-0.01428,-0.01637
1949.72713,-0.01389,-0.01601
1947.79861,-0.01348,-0.01558
1945.8701,-0.01337,-0.01532
1943.94159,-0.01357,-0.01539
1942.01307,-0.014,-0.0159
1940.08456,-0.01455,-0.01651
1938.15605,-0.01477,-0.01675
1936.22753,-0.01462,-0.01667
1934.29902,-0.01428,-0.01641
1932.37051,-0.01375,-0.01597
1930.44199,-0.0133,-0.0157
1928.51348,-0.01342,-0.01593
1926.58497,-0.01401,-0.01641
1924.65645,-0.01439,-0.01661
1922.72794,-0.01424,-0.01643
1920.79943,-0.014,-0.01627
1918.87091,-0.01413,-0.01638
1916.9424,-0.01435,-0.01655
1915.01389,-0.01441,-0.01663
1913.08537,-0.01444,-0.01665
1911.15686,-0.01448,-0.01666
1909.22834,-0.01448,-0.01672
1907.29983,-0.0144,-0.01671
1905.37132,-0.0142,-0.01652
1903.4428,-0.01405,-0.01634
1901.51429,-0.01408,-0.01631
1899.58578,-0.01419,-0.01644
1897.65726,-0.01425,-0.01663
1895.72875,-0.01428,-0.01676
1893.80024,-0.01437,-0.01679
1891.87172,-0.01437,-0.01669
1889.94321,-0.01422,-0.01651
1888.0147,-0.01404,-0.01639
1886.08618,-0.01406,-0.01643
1884.15767,-0.01423,-0.01653
1882.22916,-0.0143,-0.01655
1880.30064,-0.01433,-0.01657
1878.37213,-0.01447,-0.01672
1876.44362,-0.0146,-0.0169
1874.5151,-0.01465,-0.01697
1872.58659,-0.01464,-0.01699
1870.65807,-0.01465,-0.01703
1868.72956,-0.01459,-0.01696
1866.80105,-0.01439,-0.0167
1864.87253,-0.01423,-0.0165
1862.94402,-0.01422,-0.01653
1861.01551,-0.01425,-0.01664
1859.08699,-0.01428,-0.01671
1857.15848,-0.01437,-0.0168
1855.22997,-0.01447,-0.0169
1853.30145,-0.01449,-0.01688
1851.37294,-0.01449,-0.0168
1849.44443,-0.01456,-0.01682
1847.51591,-0.01465,-0.01696
1845.5874,-0.01469,-0.0171
1843.65889,-0.01466,-0.01712
1841.73037,-0.01465,-0.01711
1839.80186,-0.01475,-0.01722
1837.87335,-0.01483,-0.01732
1835.94483,-0.01483,-0.01734
1834.01632,-0.01491,-0.0174
1832.08781,-0.01502,-0.01751
1830.15929,-0.01506,-0.01756
1828.23078,-0.01503,-0.01758
1826.30226,-0.01502,-0.01762
1824.37375,-0.01506,-0.01769
1822.44524,-0.01508,-0.0177
1820.51672,-0.01505,-0.01764
1818.58821,-0.01504,-0.01759
1816.6597,-0.0151,-0.01758
1814.73118,-0.01509,-0.01756
1812.80267,-0.01499,-0.01748
1810.87416,-0.0149,-0.01739
1808.94564,-0.01486,-0.01732
1807.01713,-0.01484,-0.01729
1805.08862,-0.01483,-0.01728
1803.1601,-0.01483,-0.01728
1801.23159,-0.01485,-0.01731
1799.30308,-0.01488,-0.01734
1797.37456,-0.01485,-0.0173
1795.44605,-0.01478,-0.01723
1793.51754,-0.01476,-0.0172
1791.58902,-0.01477,-0.0172
1789.66051,-0.01474,-0.01718
1787.732,-0.01472,-0.01717
1785.80348,-0.01474,-0.01715
1783.87497,-0.01477,-0.01715
1781.94645,-0.01482,-0.01719
1780.01794,-0.01481,-0.0172
1778.08943,-0.01473,-0.01714
1776.16091,-0.01466,-0.0171
1774.2324,-0.01465,-0.01712
1772.30389,-0.01465,-0.01715
1770.37537,-0.01467,-0.01718
1768.44686,-0.01474,-0.01726
1766.51835,-0.01472,-0.01731
1764.58983,-0.01457,-0.01728
1762.66132,-0.01437,-0.01723
1760.73281,-0.01413,-0.01719
1758.80429,-0.01383,-0.01715
1756.87578,-0.01342,-0.01708
1754.94727,-0.01289,-0.01696
1753.01875,-0.01235,-0.01688
1751.09024,-0.01182,-0.01681
1749.16173,-0.01131,-0.0167
1747.23321,-0.01094,-0.0166
1745.3047,-0.01083,-0.01663
1743.37619,-0.011,-0.01676
1741.44767,-0.01141,-0.01695
1739.51916,-0.01195,-0.01713
1737.59064,-0.01253,-0.01731
1735.66213,-0.01321,-0.01759
1733.73362,-0.01381,-0.01786
1731.8051,-0.01418,-0.01795
1729.87659,-0.01444,-0.018
1727.94808,-0.01464,-0.01806
1726.01956,-0.01487,-0.01817
1724.09105,-0.01517,-0.01831
1722.16254,-0.01541,-0.01841
1720.23402,-0.01558,-0.01846
1718.30551,-0.01574,-0.01855
1716.377,-0.01588,-0.01862
1714.44848,-0.01595,-0.0186
1712.51997,-0.01597,-0.01854
1710.59146,-0.01598,-0.01851
1708.66294,-0.01601,-0.01856
1706.73443,-0.01603,-0.01861
1704.80592,-0.01595,-0.01856
1702.8774,-0.01587,-0.01854
1700.94889,-0.01585,-0.01864
1699.02038,-0.0157,-0.01863
1697.09186,-0.01549,-0.01855
1695.16335,-0.01524,-0.01846
1693.23483,-0.01491,-0.01832
1691.30632,-0.01459,-0.01824
1689.37781,-0.01426,-0.0182
1687.44929,-0.01389,-0.01818
1685.52078,-0.01356,-0.01819
1683.59227,-0.01314,-0.01811
1681.66375,-0.01262,-0.0179
1679.73524,-0.0122,-0.01777
1677.80673,-0.01192,-0.01777
1675.87821,-0.01166,-0.01781
1673.9497,-0.01137,-0.01782
1672.02119,-0.01109,-0.01786
1670.09267,-0.0108,-0.01787
1668.16416,-0.01042,-0.01775
1666.23565,-0.01003,-0.01758
1664.30713,-0.00974,-0.01754
1662.37862,-0.00952,-0.01759
1660.45011,-0.00925,-0.01756
1658.52159,-0.00889,-0.01743
1656.59308,-0.00855,-0.01734
1654.66457,-0.00846,-0.01747
1652.73605,-0.0084,-0.01755
1650.80754,-0.00814,-0.01734
1648.87902,-0.00801,-0.01725
1646.95051,-0.00809,-0.01738
1645.022,-0.00812,-0.01745
1643.09348,-0.00812,-0.01743
1641.16497,-0.0082,-0.01745
1639.23646,-0.00839,-0.01758
1637.30794,-0.00869,-0.01781
1635.37943,-0.00897,-0.01799
1633.45092,-0.00915,-0.01801
1631.5224,-0.00935,-0.01804
1629.59389,-0.00966,-0.01817
1627.66538,-0.00997,-0.01831
1625.73686,-0.0103,-0.01848
1623.80835,-0.01066,-0.01865
1621.87984,-0.01094,-0.01872
1619.95132,-0.01121,-0.01876
1618.02281,-0.01156,-0.01892
1616.0943,-0.01187,-0.01904
1614.16578,-0.01209,-0.01906
1612.23727,-0.01235,-0.01911
1610.30876,-0.01266,-0.01924
1608.38024,-0.01295,-0.01936
1606.45173,-0.01318,-0.01944
1604.52321,-0.01334,-0.01948
1602.5947,-0.01342,-0.01946
1600.66619,-0.01346,-0.01943
1598.73767,-0.01351,-0.01943
1596.80916,-0.01356,-0.01945
1594.88065,-0.01357,-0.01947
1592.95213,-0.01357,-0.01947
1591.02362,-0.01353,-0.01945
1589.09511,-0.01341,-0.0194
1587.16659,-0.01322,-0.01932
1585.23808,-0.01301,-0.01925
1583.30957,-0.01275,-0.01916
1581.38105,-0.0124,-0.019
1579.45254,-0.01202,-0.01884
1577.52403,-0.01169,-0.01878
1575.59551,-0.0113,-0.01867
1573.667,-0.0108,-0.01845
1571.73849,-0.01037,-0.01832
1569.80997,-0.01003,-0.0183
1567.88146,-0.00963,-0.01821
1565.95295,-0.0092,-0.01806
1564.02443,-0.00877,-0.01793
1562.09592,-0.00838,-0.01788
1560.1674,-0.00815,-0.01795
1558.23889,-0.00785,-0.01787
1556.31038,-0.00751,-0.01768
1554.38186,-0.00738,-0.01767
1552.45335,-0.00736,-0.01775
1550.52484,-0.00733,-0.01777
1548.59632,-0.0073,-0.01775
1546.66781,-0.00733,-0.01775
1544.7393,-0.00743,-0.01776
1542.81078,-0.00756,-0.01779
1540.88227,-0.00776,-0.01786
1538.95376,-0.00798,-0.0179
1537.02524,-0.00818,-0.01789
1535.09673,-0.00849,-0.01801
1533.16822,-0.0088,-0.01813
1531.2397,-0.00901,-0.01813
1529.31119,-0.00926,-0.01818
1527.38268,-0.00955,-0.01827
1525.45416,-0.0098,-0.01833
1523.52565,-0.01004,-0.0184
1521.59714,-0.01026,-0.01847
1519.66862,-0.01042,-0.01847
1517.74011,-0.01059,-0.01847
1515.81159,-0.01088,-0.01853
1513.88308,-0.01124,-0.01861
1511.95457,-0.01161,-0.01867
1510.02605,-0.01197,-0.01876
1508.09754,-0.01239,-0.01896
1506.16903,-0.01281,-0.01916
1504.24051,-0.01305,-0.01917
1502.312,-0.01321,-0.01912
1500.38349,-0.0134,-0.01917
1498.45497,-0.0136,-0.01927
1496.52646,-0.01376,-0.01933
1494.59795,-0.01389,-0.01933
1492.66943,-0.01403,-0.01935
1490.74092,-0.01418,-0.01942
1488.81241,-0.01425,-0.01947
1486.88389,-0.01424,-0.01946
1484.95538,-0.0142,-0.01944
1483.02687,-0.01412,-0.01941
1481.09835,-0.01395,-0.01937
1479.16984,-0.01371,-0.01934
1477.24133,-0.0134,-0.01929
1475.31281,-0.013,-0.01926
1473.3843,-0.01257,-0.01925
1471.45578,-0.01204,-0.01915
1469.52727,-0.01145,-0.01894
1467.59876,-0.01096,-0.01881
1465.67024,-0.01066,-0.01883
1463.74173,-0.01046,-0.01885
1461.81322,-0.01026,-0.01878
1459.8847,-0.01004,-0.01873
1457.95619,-0.00993,-0.01878
1456.02768,-0.00985,-0.01879
1454.09916,-0.00984,-0.01874
1452.17065,-0.00993,-0.01877
1450.24214,-0.01006,-0.01886
1448.31362,-0.01012,-0.01892
1446.38511,-0.01014,-0.01892
1444.4566,-0.01015,-0.01891
1442.52808,-0.01019,-0.01891
1440.59957,-0.01022,-0.01892
1438.67106,-0.01026,-0.01895
1436.74254,-0.01033,-0.01897
1434.81403,-0.01035,-0.01891
1432.88552,-0.01038,-0.01888
1430.957,-0.01046,-0.01894
1429.02849,-0.01049,-0.01901
1427.09997,-0.01044,-0.01902
1425.17146,-0.01034,-0.01899
1423.24295,-0.0102,-0.01894
1421.31443,-0.01007,-0.01893
1419.38592,-0.00997,-0.01893
1417.45741,-0.00985,-0.01888
1415.52889,-0.00973,-0.01881
1413.60038,-0.00969,-0.01883
1411.67187,-0.00969,-0.01886
1409.74335,-0.00964,-0.01885
1407.81484,-0.00959,-0.01883
1405.88633,-0.00956,-0.01885
1403.95781,-0.00954,-0.01887
1402.0293,-0.00951,-0.01887
1400.10079,-0.00952,-0.01887
1398.17227,-0.00954,-0.01888
1396.24376,-0.00958,-0.01891
1394.31525,-0.00961,-0.01894
1392.38673,-0.00962,-0.01893
1390.45822,-0.00969,-0.01899
1388.52971,-0.0098,-0.01911
1386.60119,-0.00984,-0.01917
1384.67268,-0.00982,-0.01917
1382.74416,-0.00979,-0.01919
1380.81565,-0.00972,-0.01918
1378.88714,-0.00964,-0.01913
1376.95862,-0.00962,-0.01912
1375.03011,-0.00969,-0.01915
1373.1016,-0.00979,-0.01917
1371.17308,-0.0099,-0.01919
1369.24457,-0.01005,-0.01923
1367.31606,-0.01025,-0.0193
1365.38754,-0.01041,-0.01935
1363.45903,-0.01052,-0.01934
1361.53052,-0.0106,-0.0193
1359.602,-0.01073,-0.01929
1357.67349,-0.01089,-0.01933
1355.74498,-0.01101,-0.01938
1353.81646,-0.01107,-0.01939
1351.88795,-0.0111,-0.01939
1349.95944,-0.01113,-0.0194
1348.03092,-0.01114,-0.01938
1346.10241,-0.01114,-0.01937
1344.1739,-0.01115,-0.01938
1342.24538,-0.01118,-0.01938
1340.31687,-0.01123,-0.0194
1338.38835,-0.01132,-0.01945
1336.45984,-0.0114,-0.01949
1334.53133,-0.01144,-0.0195
1332.60281,-0.01146,-0.01949
1330.6743,-0.01152,-0.01951
1328.74579,-0.01158,-0.01955
1326.81727,-0.01159,-0.01957
1324.88876,-0.01157,-0.01957
1322.96025,-0.01154,-0.01958
1321.03173,-0.01148,-0.01954
1319.10322,-0.01142,-0.0195
1317.17471,-0.01144,-0.01951
1315.24619,-0.01151,-0.0196
1313.31768,-0.01155,-0.01965
1311.38917,-0.01154,-0.01964
1309.46065,-0.01154,-0.01962
1307.53214,-0.01163,-0.01966
1305.60363,-0.01178,-0.01974
1303.67511,-0.01189,-0.01979
1301.7466,-0.01199,-0.01983
1299.81809,-0.0121,-0.01989
1297.88957,-0.0122,-0.01994
1295.96106,-0.01225,-0.01996
1294.03254,-0.01229,-0.01995
1292.10403,-0.01233,-0.01995
1290.17552,-0.01234,-0.01997
1288.247,-0.01235,-0.02002
1286.31849,-0.01236,-0.02007
1284.38998,-0.01234,-0.02007
1282.46146,-0.01231,-0.02006
1280.53295,-0.01232,-0.02009
1278.60444,-0.01234,-0.02013
1276.67592,-0.01235,-0.02017
1274.74741,-0.01236,-0.02021
1272.8189,-0.01234,-0.02025
1270.89038,-0.01231,-0.02029
1268.96187,-0.01225,-0.02031
1267.03336,-0.01212,-0.02027
1265.10484,-0.01201,-0.02024
1263.17633,-0.01196,-0.02026
1261.24782,-0.01195,-0.02031
1259.3193,-0.01195,-0.02035
1257.39079,-0.01194,-0.02036
1255.46228,-0.01191,-0.02035
1253.53376,-0.01189,-0.02034
1251.60525,-0.01189,-0.02035
1249.67673,-0.0119,-0.0204
1247.74822,-0.01192,-0.02045
1245.81971,-0.01197,-0.02051
1243.89119,-0.01202,-0.02053
1241.96268,-0.01206,-0.02052
1240.03417,-0.01214,-0.02053
1238.10565,-0.01231,-0.02061
1236.17714,-0.01249,-0.02071
1234.24863,-0.01263,-0.02078
1232.32011,-0.01278,-0.02085
1230.3916,-0.01296,-0.02094
1228.46309,-0.01313,-0.02102
1226.53457,-0.01328,-0.0211
1224.60606,-0.01344,-0.02118
1222.67755,-0.01363,-0.02127
1220.74903,-0.01383,-0.02135
1218.82052,-0.01401,-0.02143
1216.89201,-0.01418,-0.02151
1214.96349,-0.01437,-0.02158
1213.03498,-0.01454,-0.02166
1211.10647,-0.01467,-0.02175
1209.17795,-0.01475,-0.02183
1207.24944,-0.01481,-0.0219
1205.32092,-0.01488,-0.02199
1203.39241,-0.0149,-0.02203
1201.4639,-0.01491,-0.02204
1199.53538,-0.01495,-0.02207
1197.60687,-0.01507,-0.02215
1195.67836,-0.0152,-0.02223
1193.74984,-0.01529,-0.02225
1191.82133,-0.01535,-0.02226
1189.89282,-0.01543,-0.02236
1187.9643,-0.01546,-0.02248
1186.03579,-0.0153,-0.02247
1184.10728,-0.01499,-0.02241
1182.17876,-0.0147,-0.02243
1180.25025,-0.01436,-0.02247
1178.32174,-0.01391,-0.02244
1176.39322,-0.01342,-0.02242
1174.46471,-0.01292,-0.02243
1172.5362,-0.01238,-0.0224
1170.60768,-0.0118,-0.02235
1168.67917,-0.01121,-0.02231
1166.75066,-0.01065,-0.02227
1164.82214,-0.01013,-0.02224
1162.89363,-0.00962,-0.02221
1160.96511,-0.00917,-0.02219
1159.0366,-0.00888,-0.02217
1157.10809,-0.00873,-0.02213
1155.17957,-0.0087,-0.02209
1153.25106,-0.00879,-0.02209
1151.32255,-0.00899,-0.02215
1149.39403,-0.00922,-0.02221
1147.46552,-0.00941,-0.02222
1145.53701,-0.00955,-0.02219
1143.60849,-0.00966,-0.02213
1141.67998,-0.00973,-0.02206
1139.75147,-0.00973,-0.02202
1137.82295,-0.00968,-0.02199
1135.89444,-0.00957,-0.02195
1133.96593,-0.00938,-0.0219
1132.03741,-0.00912,-0.02191
1130.1089,-0.00875,-0.0219
1128.18039,-0.00817,-0.02177
1126.25187,-0.00746,-0.0216
1124.32336,-0.00679,-0.02148
1122.39484,-0.00627,-0.02144
1120.46633,-0.00584,-0.02138
1118.53782,-0.00552,-0.02126
1116.6093,-0.00542,-0.02116
1114.68079,-0.00558,-0.02119
1112.75228,-0.00586,-0.02126
1110.82376,-0.00604,-0.02126
1108.89525,-0.00603,-0.02121
1106.96674,-0.00581,-0.02116
1105.03822,-0.00534,-0.02106
1103.10971,-0.00474,-0.02098
1101.1812,-0.00414,-0.02098
1099.25268,-0.00358,-0.021
1097.32417,-0.00299,-0.02094
1095.39566,-0.00238,-0.0208
1093.46714,-0.00183,-0.02064
1091.53863,-0.00135,-0.02053
1089.61012,-0.00087,-0.02052
1087.6816,-0.00022,-0.0205
1085.75309,0.00061,-0.02045
1083.82458,0.00148,-0.0204
1081.89606,0.0023,-0.02034
1079.96755,0.00306,-0.0202
1078.03903,0.00361,-0.02009
1076.11052,0.00382,-0.0201
1074.18201,0.00374,-0.02018
1072.25349,0.00341,-0.02022
1070.32498,0.00281,-0.02023
1068.39647,0.00203,-0.02025
1066.46795,0.00125,-0.02029
1064.53944,0.00061,-0.0203
1062.61093,0.00014,-0.02033
1060.68241,-0.0001,-0.02033
1058.7539,-0.00009,-0.02025
1056.82539,0.00006,-0.02018
1054.89687,0.00022,-0.02021
1052.96836,0.00043,-0.02026
1051.03985,0.00072,-0.02026
1049.11133,0.00103,-0.02024
1047.18282,0.0013,-0.0202
1045.25431,0.0014,-0.02021
1043.32579,0.00133,-0.02029
1041.39728,0.00132,-0.02027
1039.46877,0.00137,-0.02013
1037.54025,0.00122,-0.02008
1035.61174,0.0009,-0.02015
1033.68322,0.00056,-0.02021
1031.75471,0.0002,-0.02021
1029.8262,-0.00024,-0.0202
1027.89768,-0.00075,-0.02021
1025.96917,-0.00129,-0.02024
1024.04066,-0.00188,-0.02031
1022.11214,-0.00257,-0.02042
1020.18363,-0.00344,-0.02053
1018.25512,-0.00452,-0.02067
1016.3266,-0.0057,-0.02079
1014.39809,-0.00684,-0.02081
1012.46958,-0.00782,-0.02076
1010.54106,-0.00864,-0.02076
1008.61255,-0.00938,-0.02091
1006.68404,-0.00992,-0.02107
1004.75552,-0.01008,-0.02107
1002.82701,-0.00998,-0.02098
1000.8985,-0.0099,-0.02098
998.96998,-0.00994,-0.02108
997.04147,-0.01006,-0.02115
995.11296,-0.01021,-0.02115
993.18444,-0.01045,-0.02115
991.25593,-0.01081,-0.0212
989.32741,-0.01122,-0.02126
987.3989,-0.01158,-0.02128
985.47039,-0.01197,-0.02131
983.54187,-0.01247,-0.02142
981.61336,-0.01299,-0.02156
979.68485,-0.01345,-0.02163
977.75633,-0.01381,-0.02162
975.82782,-0.01411,-0.0216
973.89931,-0.01444,-0.02165
971.97079,-0.01478,-0.02177
970.04228,-0.01506,-0.02189
968.11377,-0.01526,-0.02197
966.18525,-0.0154,-0.02199
964.25674,-0.01549,-0.02194
962.32823,-0.01555,-0.02188
960.39971,-0.0156,-0.02186
958.4712,-0.01564,-0.02189
956.54269,-0.01569,-0.02194
954.61417,-0.01572,-0.02198
952.68566,-0.01574,-0.02199
950.75715,-0.01577,-0.02201
948.82863,-0.0158,-0.022
946.90012,-0.01577,-0.02193
944.9716,-0.01578,-0.02188
943.04309,-0.01594,-0.02197
941.11458,-0.01613,-0.02213
939.18606,-0.01623,-0.02222
937.25755,-0.01625,-0.02221
935.32904,-0.01628,-0.02218
933.40052,-0.01633,-0.02217
931.47201,-0.01634,-0.02214
929.5435,-0.01635,-0.02215
927.61498,-0.0164,-0.02225
925.68647,-0.01644,-0.02234
923.75796,-0.01642,-0.02235
921.82944,-0.01638,-0.02233
919.90093,-0.01637,-0.0223
917.97242,-0.01636,-0.02225
916.0439,-0.01642,-0.02226
914.11539,-0.0166,-0.02242
912.18688,-0.01682,-0.02264
910.25836,-0.01691,-0.02274
908.32985,-0.01683,-0.02272
906.40134,-0.01673,-0.02272
904.47282,-0.01672,-0.02283
902.54431,-0.01672,-0.02292
900.61579,-0.0166,-0.02295
898.68728,-0.01644,-0.02294
896.75877,-0.01634,-0.02292
894.83025,-0.01635,-0.02295
892.90174,-0.01643,-0.02304
890.97323,-0.01661,-0.02315
889.04471,-0.01677,-0.02318
887.1162,-0.01674,-0.02305
885.18769,-0.01665,-0.0229
883.25917,-0.01671,-0.0229
881.33066,-0.01684,-0.02295
879.40215,-0.01701,-0.02304
877.47363,-0.01728,-0.02325
875.54512,-0.01755,-0.02348
873.61661,-0.01769,-0.02357
871.68809,-0.01771,-0.02352
869.75958,-0.01763,-0.02335
867.83107,-0.01749,-0.02317
865.90255,-0.01739,-0.02311
863.97404,-0.01739,-0.02316
862.04553,-0.01748,-0.02327
860.11701,-0.01769,-0.02342
858.1885,-0.01797,-0.02358
856.25998,-0.01809,-0.02359
854.33147,-0.01803,-0.0235
852.40296,-0.01797,-0.02344
850.47444,-0.01797,-0.02341
848.54593,-0.01804,-0.02347
846.61742,-0.01815,-0.02354
844.6889,-0.01815,-0.02343
842.76039,-0.01806,-0.02324
840.83188,-0.01805,-0.02323
838.90336,-0.0181,-0.02332
836.97485,-0.01803,-0.02328
835.04634,-0.01792,-0.02321
833.11782,-0.018,-0.02329
831.18931,-0.01828,-0.0235
829.2608,-0.01853,-0.02365
827.33228,-0.01849,-0.02353
825.40377,-0.01824,-0.02322
823.47526,-0.01808,-0.02302
821.54674,-0.01817,-0.02312
819.61823,-0.01834,-0.02328
817.68972,-0.01837,-0.0233
815.7612,-0.01839,-0.02331
813.83269,-0.01851,-0.0234
811.90417,-0.01851,-0.02334
809.97566,-0.01835,-0.02313
808.04715,-0.01822,-0.02302
806.11863,-0.01813,-0.02295
804.19012,-0.01803,-0.02284
802.26161,-0.01798,-0.02276
800.33309,-0.01795,-0.02277
798.40458,-0.01793,-0.02285
796.47607,-0.01782,-0.02281
794.54755,-0.01754,-0.02258
792.61904,-0.01731,-0.02242
790.69053,-0.01726,-0.02248
788.76201,-0.01732,-0.02266
786.8335,-0.01743,-0.02283
784.90499,-0.01737,-0.02277
782.97647,-0.0171,-0.02251
781.04796,-0.01687,-0.02227
779.11945,-0.01685,-0.02214
777.19093,-0.01691,-0.02208
775.26242,-0.01686,-0.022
773.33391,-0.01667,-0.02184
771.40539,-0.01647,-0.02164
769.47688,-0.01639,-0.02148
767.54836,-0.01635,-0.02129
765.61985,-0.01618,-0.021
763.69134,-0.01606,-0.02086
761.76282,-0.01621,-0.02104
759.83431,-0.01648,-0.02124
757.9058,-0.01657,-0.02118
755.97728,-0.01654,-0.02101
754.04877,-0.01649,-0.02084
752.12026,-0.0164,-0.02068
750.19174,-0.01639,-0.02065
748.26323,-0.0165,-0.02072
746.33472,-0.01644,-0.02056
744.4062,-0.01614,-0.02013
742.47769,-0.01598,-0.01985
740.54918,-0.01621,-0.01995
738.62066,-0.01653,-0.0202
736.69215,-0.01657,-0.02021
734.76364,-0.01625,-0.01978
732.83512,-0.01586,-0.01926
730.90661,-0.01569,-0.01903
728.9781,-0.01568,-0.01899
727.04958,-0.01559,-0.01888
725.12107,-0.01532,-0.01866
723.19255,-0.01515,-0.0185
721.26404,-0.01523,-0.01849
719.33553,-0.01525,-0.01847
717.40701,-0.01495,-0.01821
715.4785,-0.0145,-0.01779
713.54999,-0.0142,-0.01748
711.62147,-0.01407,-0.01728
709.69296,-0.01394,-0.01707
707.76445,-0.01386,-0.01702
705.83593,-0.01386,-0.0171
703.90742,-0.01379,-0.01694
701.97891,-0.01369,-0.01659
700.05039,-0.01359,-0.01626
698.12188,-0.01345,-0.01593
696.19337,-0.01351,-0.01586
694.26485,-0.01385,-0.01605
692.33634,-0.0141,-0.0161
690.40783,-0.01409,-0.01596
688.47931,-0.01392,-0.0157
686.5508,-0.01368,-0.01525
684.62229,-0.01351,-0.01481
682.69377,-0.01356,-0.01473
680.76526,-0.01375,-0.01482
678.83674,-0.01377,-0.01468
676.90823,-0.01368,-0.01449
674.97972,-0.01372,-0.01442
673.0512,-0.0137,-0.01422
671.12269,-0.01358,-0.01391
669.19418,-0.01345,-0.01368
667.26566,-0.01313,-0.01339
665.33715,-0.01275,-0.01305
663.40864,-0.01261,-0.01289
661.48012,-0.01269,-0.01291
659.55161,-0.01283,-0.0129
657.6231,-0.01293,-0.01274
655.69458,-0.01288,-0.01244
653.76607,-0.01277,-0.01213
651.83756,-0.01274,-0.01195
649.90904,-0.01262,-0.01174
647.98053,-0.01234,-0.01135
646.05202,-0.01215,-0.0109
644.1235,-0.01219,-0.01053
642.19499,-0.01235,-0.01029
640.26648,-0.01223,-0.01
638.33796,-0.01185,-0.00963
636.40945,-0.01165,-0.00935
634.48093,-0.01185,-0.00934
632.55242,-0.01217,-0.00953
630.62391,-0.0121,-0.00937
628.69539,-0.01165,-0.00874
626.76688,-0.01142,-0.00841
624.83837,-0.01148,-0.00844
622.90985,-0.01128,-0.00826
620.98134,-0.01075,-0.00776
619.05283,-0.01042,-0.00735
617.12431,-0.01049,-0.00726
615.1958,-0.01065,-0.00733
613.26729,-0.01086,-0.00738
611.33877,-0.01128,-0.00739
609.41026,-0.01158,-0.00732
607.48175,-0.01126,-0.00689
605.55323,-0.01048,-0.00603
603.62472,-0.00993,-0.00539
601.69621,-0.00993,-0.00534
599.76769,-0.01006,-0.0054
597.83918,-0.00995,-0.0052
595.91067,-0.00984,-0.00504
593.98215,-0.00975,-0.005
592.05364,-0.0096,-0.00489
590.12512,-0.00981,-0.0049
588.19661,-0.01005,-0.0047
586.2681,-0.0095,-0.00375
584.33958,-0.00889,-0.00303
582.41107,-0.00904,-0.00324
580.48256,-0.00934,-0.00356
578.55404,-0.00931,-0.00351
576.62553,-0.00892,-0.00313
574.69702,-0.00857,-0.00277
572.7685,-0.00886,-0.00286
570.83999,-0.00926,-0.00288
568.91148,-0.00886,-0.00228
566.98296,-0.00793,-0.00151
565.05445,-0.00739,-0.00126
563.12594,-0.00746,-0.00134
561.19742,-0.00802,-0.0015
559.26891,-0.00882,-0.00195
557.3404,-0.00917,-0.00216
555.41188,-0.00906,-0.00183
553.48337,-0.00908,-0.00159
551.55486,-0.00903,-0.00141
549.62634,-0.00831,-0.00064
547.69783,-0.00729,0.00043
545.76931,-0.00677,0.00084
543.8408,-0.00669,0.0006
541.91229,-0.00675,0.00039
539.98377,-0.0067,0.00054
538.05526,-0.0067,0.00076
536.12675,-0.0075,0.00027
534.19823,-0.00837,-0.00038
532.26972,-0.00783,0.00028
530.34121,-0.0067,0.00151
528.41269,-0.00653,0.0017
526.48418,-0.0073,0.00102
524.55567,-0.00835,0.00018
522.62715,-0.0089,-0.00008
520.69864,-0.00842,0.00096
518.77013,-0.00774,0.00218
516.84161,-0.00761,0.00237
514.9131,-0.0075,0.00226
512.98459,-0.00742,0.00219
511.05607,-0.00788,0.0018
509.12756,-0.00819,0.00184
507.19905,-0.00792,0.00262
505.27053,-0.00775,0.00319
503.34202,-0.00763,0.00332
501.4135,-0.00741,0.00319
499.48499,-0.00775,0.00257
497.55648,-0.00825,0.00226
495.62796,-0.00802,0.00284
493.69945,-0.00758,0.00333
491.77094,-0.00727,0.00353
489.84242,-0.00656,0.00432
487.91391,-0.006,0.00526
485.9854,-0.00661,0.00511
484.05688,-0.00805,0.00389
482.12837,-0.00916,0.00285
480.19986,-0.00931,0.00291
478.27134,-0.00883,0.00375
476.34283,-0.00837,0.00454
474.41432,-0.00791,0.00513
472.4858,-0.00737,0.00571
470.55729,-0.0074,0.00584
468.62878,-0.00772,0.00555
466.70026,-0.00729,0.0059
464.77175,-0.00645,0.00672
462.84324,-0.00622,0.00676
460.91472,-0.00674,0.00606
458.98621,-0.00744,0.00563
457.05769,-0.00776,0.0056
455.12918,-0.00741,0.00565
453.20067,-0.00706,0.00579
451.27215,-0.00763,0.00547
449.34364,-0.00837,0.00503
447.41513,-0.00827,0.00544
445.48661,-0.00775,0.0062
443.5581,-0.00702,0.00702
441.62959,-0.00634,0.00795
439.70107,-0.0065,0.00814
437.77256,-0.00771,0.00741
435.84405,-0.00924,0.00657
433.91553,-0.00946,0.00698
431.98702,-0.00843,0.00871
430.05851,-0.00834,0.00925
428.12999,-0.00863,0.00803
426.20148,-0.00787,0.00761
424.27297,-0.00696,0.00909
422.34445,-0.00669,0.01071
420.41594,-0.0082,0.0097
418.48743,-0.01129,0.00639
416.55891,-0.01247,0.00438
414.6304,-0.01093,0.00479
412.70188,-0.01014,0.00534
410.77337,-0.01216,0.00391
408.84486,-0.01427,0.00135
406.91634,-0.01204,0.00167
404.98783,-0.00621,0.0064
403.05932,-0.0031,0.01033
401.1308,-0.00636,0.00897
399.20229,-0.01245,0.00551
